[Header]
Application Name	LabSolutions
Version	5.93
Data File Name	C:\LabSolutions\Data\hillerod 12-10-2021\Standard_10ml_003_036.lcd
Output Date	13-10-2021
Output Time	19:34:45

[File Information]
Type	Data File
Generated	13-10-2021 04:08:28
Generated by	LABUSER
Modified	13-10-2021 19:26:51
Modified by	LABUSER

[Sample Information]
Operator Name	LABUSER
Acquired	13-10-2021 04:08:46
Sample Type	0:Unknown
Level	0
Sample Name	Standard_10ml_003
Sample ID	
ISTD Amount1	1
ISTD Amount2	1
ISTD Amount3	1
ISTD Amount4	1
ISTD Amount5	1
ISTD Amount6	1
ISTD Amount7	1
ISTD Amount8	1
ISTD Amount9	1
ISTD Amount10	1
ISTD Amount11	1
ISTD Amount12	1
ISTD Amount13	1
ISTD Amount14	1
ISTD Amount15	1
ISTD Amount16	1
ISTD Amount17	1
ISTD Amount18	1
ISTD Amount19	1
ISTD Amount20	1
ISTD Amount21	1
ISTD Amount22	1
ISTD Amount23	1
ISTD Amount24	1
ISTD Amount25	1
ISTD Amount26	1
ISTD Amount27	1
ISTD Amount28	1
ISTD Amount29	1
ISTD Amount30	1
ISTD Amount31	1
ISTD Amount32	1
Sample Amount	1
Dilution Factor	1
Vial#	12
Injection Volume	10

[Original Files]
Data File	C:\LabSolutions\Data\hillerod 12-10-2021\Standard_10ml_003_036.lcd
Method File	C:\LabSolutions\Data\Next gym 211006\T3 benzo caff method.lcm
Batch File	C:\LabSolutions\Data\hillerod 12-10-2021\batch1.lcb
Report Format File	c:\LabSolutions\System\DEFAULT.lsr

[File Description]


[Configuration]
Instrument Name	B22002-Instrument1
Instrument #	1
Line #	1
# of Detectors	2
Detector ID	Detector A	Detector B
Detector Name	Detector A	Detector B
# of Channels	2	1

[Peak Table(Detector A-Ch1)]
# of Peaks	5
Peak#	R.Time	I.Time	F.Time	Area	Height	A/H	Conc.	Mark	ID#	Name	k'	Plate #	Plate Ht.	Tailing	Resolution	Sep.Factor	Area Ratio	Height Ratio	Conc. %	Norm Conc.
1	4,078	3,908	4,258	10592	661	16,017	1,606	   			0,000	772	194,279	0,000	0,000	0,000	0	0	0,000	0,000
2	4,464	4,258	4,942	29919	1135	26,361	4,538	 V 			0,095	165	906,405	0,000	0,391	0,000	0	0	0,000	0,000
3	6,346	6,108	6,500	7270	659	11,024	1,103	   			0,556	6565	22,848	0,876	2,212	5,871	0	0	0,000	0,000
4	7,357	7,025	7,675	596171	47257	12,616	90,418	 V 			0,804	8086	18,552	0,876	3,155	1,446	0	0	0,000	0,000
5	7,785	7,675	8,008	15395	1044	14,747	2,335	 V 			0,909	2659	56,420	0,000	0,921	1,131	0	0	0,000	0,000

[Peak Table(Detector A-Ch2)]
# of Peaks	4
Peak#	R.Time	I.Time	F.Time	Area	Height	A/H	Conc.	Mark	ID#	Name	k'	Plate #	Plate Ht.	Tailing	Resolution	Sep.Factor	Area Ratio	Height Ratio	Conc. %	Norm Conc.
1	1,209	1,108	1,308	1920	293	6,546	0,173	 V 			0,000	660	227,304	0,000	0,000	0,000	0	0	0,000	0,000
2	1,413	1,308	1,442	1293	247	5,230	0,116	 V 			0,169	687	218,272	0,000	1,009	0,000	0	0	0,000	0,000
3	1,500	1,442	1,725	2589	485	5,335	0,233	 V 			0,241	1450	103,418	0,000	0,467	1,427	0	0	0,000	0,000
4	7,356	6,992	8,100	1104884	88949	12,422	99,478	 V 			5,085	8152	18,401	0,862	24,229	21,133	0	0	0,000	0,000

[Peak Table(Detector B)]
# of Peaks	0

[LC Chromatogram(Detector A-Ch1)]
Interval(msec)	500
# of Points	1801
Start Time(min)	0,000
End Time(min)	15,000
Intensity Units	mV
Intensity Multiplier	0,001
Wavelength(nm)	230nm
R.Time (min)	Intensity
0,00000	336
0,00833	336
0,01667	-16
0,02500	-27
0,03333	-49
0,04167	-83
0,05000	-122
0,05833	-165
0,06667	-213
0,07500	-261
0,08333	-304
0,09167	-341
0,10000	-369
0,10833	-387
0,11667	-401
0,12500	-416
0,13333	-442
0,14167	-481
0,15000	-519
0,15833	-543
0,16667	-557
0,17500	-572
0,18333	-576
0,19167	-554
0,20000	-518
0,20833	-482
0,21667	-450
0,22500	-425
0,23333	-399
0,24167	-364
0,25000	-320
0,25833	-272
0,26667	-239
0,27500	-225
0,28333	-215
0,29167	-202
0,30000	-190
0,30833	-182
0,31667	-179
0,32500	-185
0,33333	-200
0,34167	-214
0,35000	-228
0,35833	-258
0,36667	-309
0,37500	-374
0,38333	-446
0,39167	-522
0,40000	-593
0,40833	-654
0,41667	-706
0,42500	-764
0,43333	-847
0,44167	-937
0,45000	-1003
0,45833	-1041
0,46667	-1078
0,47500	-1122
0,48333	-1165
0,49167	-1198
0,50000	-1214
0,50833	-1210
0,51667	-1203
0,52500	-1205
0,53333	-1209
0,54167	-1207
0,55000	-1192
0,55833	-1172
0,56667	-1154
0,57500	-1133
0,58333	-1108
0,59167	-1086
0,60000	-1066
0,60833	-1031
0,61667	-986
0,62500	-958
0,63333	-947
0,64167	-945
0,65000	-929
0,65833	-894
0,66667	-865
0,67500	-852
0,68333	-843
0,69167	-832
0,70000	-817
0,70833	-802
0,71667	-801
0,72500	-816
0,73333	-832
0,74167	-844
0,75000	-858
0,75833	-873
0,76667	-882
0,77500	-884
0,78333	-881
0,79167	-883
0,80000	-887
0,80833	-887
0,81667	-890
0,82500	-891
0,83333	-882
0,84167	-870
0,85000	-863
0,85833	-865
0,86667	-873
0,87500	-877
0,88333	-869
0,89167	-849
0,90000	-829
0,90833	-817
0,91667	-802
0,92500	-780
0,93333	-764
0,94167	-756
0,95000	-751
0,95833	-745
0,96667	-744
0,97500	-750
0,98333	-750
0,99167	-742
1,00000	-737
1,00833	-737
1,01667	-740
1,02500	-738
1,03333	-729
1,04167	-712
1,05000	-687
1,05833	-647
1,06667	-591
1,07500	-527
1,08333	-472
1,09167	-425
1,10000	-375
1,10833	-326
1,11667	-288
1,12500	-264
1,13333	-251
1,14167	-250
1,15000	-248
1,15833	-242
1,16667	-247
1,17500	-264
1,18333	-292
1,19167	-335
1,20000	-387
1,20833	-444
1,21667	-502
1,22500	-564
1,23333	-634
1,24167	-708
1,25000	-793
1,25833	-928
1,26667	-1223
1,27500	-1790
1,28333	-2613
1,29167	-3548
1,30000	-4508
1,30833	-5518
1,31667	-6530
1,32500	-7260
1,33333	-7268
1,34167	-6343
1,35000	-4883
1,35833	-3686
1,36667	-3332
1,37500	-3837
1,38333	-4754
1,39167	-5514
1,40000	-5765
1,40833	-5458
1,41667	-4715
1,42500	-3708
1,43333	-2597
1,44167	-1495
1,45000	-482
1,45833	378
1,46667	1061
1,47500	1614
1,48333	2068
1,49167	2354
1,50000	2371
1,50833	2091
1,51667	1581
1,52500	945
1,53333	261
1,54167	-427
1,55000	-1085
1,55833	-1717
1,56667	-2424
1,57500	-3358
1,58333	-4591
1,59167	-5989
1,60000	-7270
1,60833	-8194
1,61667	-8649
1,62500	-8653
1,63333	-8277
1,64167	-7565
1,65000	-6501
1,65833	-5090
1,66667	-3467
1,67500	-1866
1,68333	-487
1,69167	572
1,70000	1314
1,70833	1801
1,71667	2093
1,72500	2244
1,73333	2311
1,74167	2326
1,75000	2305
1,75833	2254
1,76667	2181
1,77500	2081
1,78333	1953
1,79167	1825
1,80000	1708
1,80833	1601
1,81667	1507
1,82500	1436
1,83333	1392
1,84167	1360
1,85000	1313
1,85833	1237
1,86667	1133
1,87500	1008
1,88333	860
1,89167	685
1,90000	490
1,90833	283
1,91667	74
1,92500	-136
1,93333	-351
1,94167	-565
1,95000	-760
1,95833	-930
1,96667	-1077
1,97500	-1197
1,98333	-1306
1,99167	-1416
2,00000	-1527
2,00833	-1623
2,01667	-1676
2,02500	-1669
2,03333	-1600
2,04167	-1485
2,05000	-1342
2,05833	-1183
2,06667	-1028
2,07500	-898
2,08333	-787
2,09167	-684
2,10000	-600
2,10833	-534
2,11667	-471
2,12500	-417
2,13333	-388
2,14167	-373
2,15000	-373
2,15833	-403
2,16667	-453
2,17500	-502
2,18333	-543
2,19167	-580
2,20000	-622
2,20833	-670
2,21667	-723
2,22500	-786
2,23333	-856
2,24167	-931
2,25000	-1008
2,25833	-1085
2,26667	-1165
2,27500	-1238
2,28333	-1299
2,29167	-1356
2,30000	-1412
2,30833	-1465
2,31667	-1518
2,32500	-1563
2,33333	-1598
2,34167	-1625
2,35000	-1643
2,35833	-1644
2,36667	-1631
2,37500	-1615
2,38333	-1607
2,39167	-1594
2,40000	-1573
2,40833	-1547
2,41667	-1507
2,42500	-1450
2,43333	-1389
2,44167	-1337
2,45000	-1282
2,45833	-1217
2,46667	-1150
2,47500	-1091
2,48333	-1037
2,49167	-989
2,50000	-945
2,50833	-902
2,51667	-863
2,52500	-838
2,53333	-828
2,54167	-825
2,55000	-824
2,55833	-820
2,56667	-824
2,57500	-833
2,58333	-836
2,59167	-843
2,60000	-860
2,60833	-886
2,61667	-909
2,62500	-929
2,63333	-954
2,64167	-986
2,65000	-1012
2,65833	-1024
2,66667	-1034
2,67500	-1049
2,68333	-1062
2,69167	-1067
2,70000	-1063
2,70833	-1060
2,71667	-1059
2,72500	-1061
2,73333	-1058
2,74167	-1052
2,75000	-1048
2,75833	-1039
2,76667	-1032
2,77500	-1037
2,78333	-1049
2,79167	-1064
2,80000	-1083
2,80833	-1104
2,81667	-1121
2,82500	-1127
2,83333	-1136
2,84167	-1155
2,85000	-1174
2,85833	-1187
2,86667	-1199
2,87500	-1212
2,88333	-1229
2,89167	-1244
2,90000	-1250
2,90833	-1249
2,91667	-1243
2,92500	-1236
2,93333	-1237
2,94167	-1248
2,95000	-1258
2,95833	-1256
2,96667	-1252
2,97500	-1254
2,98333	-1252
2,99167	-1241
3,00000	-1225
3,00833	-1216
3,01667	-1205
3,02500	-1182
3,03333	-1156
3,04167	-1136
3,05000	-1121
3,05833	-1117
3,06667	-1128
3,07500	-1138
3,08333	-1141
3,09167	-1140
3,10000	-1135
3,10833	-1119
3,11667	-1102
3,12500	-1090
3,13333	-1078
3,14167	-1067
3,15000	-1056
3,15833	-1050
3,16667	-1047
3,17500	-1039
3,18333	-1032
3,19167	-1031
3,20000	-1024
3,20833	-1006
3,21667	-985
3,22500	-977
3,23333	-985
3,24167	-1003
3,25000	-1025
3,25833	-1036
3,26667	-1033
3,27500	-1025
3,28333	-1015
3,29167	-1009
3,30000	-1008
3,30833	-1017
3,31667	-1043
3,32500	-1069
3,33333	-1078
3,34167	-1080
3,35000	-1082
3,35833	-1079
3,36667	-1065
3,37500	-1043
3,38333	-1020
3,39167	-1004
3,40000	-993
3,40833	-986
3,41667	-976
3,42500	-958
3,43333	-940
3,44167	-939
3,45000	-960
3,45833	-978
3,46667	-977
3,47500	-971
3,48333	-969
3,49167	-975
3,50000	-983
3,50833	-984
3,51667	-980
3,52500	-985
3,53333	-1002
3,54167	-1026
3,55000	-1056
3,55833	-1077
3,56667	-1084
3,57500	-1090
3,58333	-1102
3,59167	-1120
3,60000	-1139
3,60833	-1150
3,61667	-1154
3,62500	-1164
3,63333	-1174
3,64167	-1177
3,65000	-1179
3,65833	-1193
3,66667	-1217
3,67500	-1234
3,68333	-1236
3,69167	-1234
3,70000	-1234
3,70833	-1229
3,71667	-1212
3,72500	-1176
3,73333	-1130
3,74167	-1090
3,75000	-1067
3,75833	-1051
3,76667	-1035
3,77500	-1026
3,78333	-1026
3,79167	-1039
3,80000	-1068
3,80833	-1103
3,81667	-1141
3,82500	-1186
3,83333	-1241
3,84167	-1294
3,85000	-1330
3,85833	-1349
3,86667	-1359
3,87500	-1366
3,88333	-1377
3,89167	-1406
3,90000	-1438
3,90833	-1441
3,91667	-1410
3,92500	-1368
3,93333	-1335
3,94167	-1305
3,95000	-1273
3,95833	-1231
3,96667	-1178
3,97500	-1126
3,98333	-1085
3,99167	-1060
4,00000	-1045
4,00833	-1022
4,01667	-982
4,02500	-941
4,03333	-918
4,04167	-918
4,05000	-923
4,05833	-916
4,06667	-904
4,07500	-897
4,08333	-898
4,09167	-902
4,10000	-905
4,10833	-912
4,11667	-923
4,12500	-932
4,13333	-946
4,14167	-962
4,15000	-969
4,15833	-976
4,16667	-994
4,17500	-1017
4,18333	-1035
4,19167	-1049
4,20000	-1065
4,20833	-1092
4,21667	-1117
4,22500	-1139
4,23333	-1165
4,24167	-1183
4,25000	-1195
4,25833	-1204
4,26667	-1204
4,27500	-1194
4,28333	-1180
4,29167	-1162
4,30000	-1144
4,30833	-1132
4,31667	-1128
4,32500	-1126
4,33333	-1124
4,34167	-1112
4,35000	-1089
4,35833	-1058
4,36667	-1025
4,37500	-985
4,38333	-934
4,39167	-891
4,40000	-857
4,40833	-819
4,41667	-785
4,42500	-764
4,43333	-748
4,44167	-729
4,45000	-710
4,45833	-694
4,46667	-691
4,47500	-701
4,48333	-711
4,49167	-709
4,50000	-704
4,50833	-711
4,51667	-733
4,52500	-756
4,53333	-776
4,54167	-804
4,55000	-839
4,55833	-868
4,56667	-888
4,57500	-903
4,58333	-919
4,59167	-934
4,60000	-944
4,60833	-961
4,61667	-993
4,62500	-1030
4,63333	-1069
4,64167	-1106
4,65000	-1138
4,65833	-1167
4,66667	-1191
4,67500	-1208
4,68333	-1223
4,69167	-1240
4,70000	-1255
4,70833	-1265
4,71667	-1271
4,72500	-1278
4,73333	-1297
4,74167	-1323
4,75000	-1340
4,75833	-1340
4,76667	-1340
4,77500	-1352
4,78333	-1372
4,79167	-1388
4,80000	-1404
4,80833	-1429
4,81667	-1462
4,82500	-1501
4,83333	-1553
4,84167	-1613
4,85000	-1675
4,85833	-1735
4,86667	-1791
4,87500	-1841
4,88333	-1883
4,89167	-1919
4,90000	-1955
4,90833	-2003
4,91667	-2062
4,92500	-2115
4,93333	-2146
4,94167	-2156
4,95000	-2154
4,95833	-2145
4,96667	-2129
4,97500	-2117
4,98333	-2113
4,99167	-2111
5,00000	-2108
5,00833	-2091
5,01667	-2061
5,02500	-2039
5,03333	-2022
5,04167	-1998
5,05000	-1972
5,05833	-1953
5,06667	-1935
5,07500	-1915
5,08333	-1892
5,09167	-1867
5,10000	-1842
5,10833	-1833
5,11667	-1841
5,12500	-1850
5,13333	-1860
5,14167	-1878
5,15000	-1891
5,15833	-1893
5,16667	-1885
5,17500	-1873
5,18333	-1864
5,19167	-1858
5,20000	-1859
5,20833	-1873
5,21667	-1896
5,22500	-1908
5,23333	-1911
5,24167	-1913
5,25000	-1917
5,25833	-1930
5,26667	-1947
5,27500	-1963
5,28333	-1965
5,29167	-1952
5,30000	-1928
5,30833	-1896
5,31667	-1857
5,32500	-1814
5,33333	-1784
5,34167	-1769
5,35000	-1753
5,35833	-1734
5,36667	-1722
5,37500	-1708
5,38333	-1682
5,39167	-1658
5,40000	-1631
5,40833	-1605
5,41667	-1600
5,42500	-1615
5,43333	-1641
5,44167	-1670
5,45000	-1696
5,45833	-1712
5,46667	-1724
5,47500	-1741
5,48333	-1765
5,49167	-1788
5,50000	-1815
5,50833	-1855
5,51667	-1900
5,52500	-1944
5,53333	-1987
5,54167	-2023
5,55000	-2055
5,55833	-2088
5,56667	-2116
5,57500	-2134
5,58333	-2145
5,59167	-2153
5,60000	-2162
5,60833	-2157
5,61667	-2140
5,62500	-2128
5,63333	-2120
5,64167	-2114
5,65000	-2110
5,65833	-2104
5,66667	-2102
5,67500	-2116
5,68333	-2142
5,69167	-2161
5,70000	-2170
5,70833	-2172
5,71667	-2173
5,72500	-2171
5,73333	-2165
5,74167	-2164
5,75000	-2155
5,75833	-2134
5,76667	-2120
5,77500	-2116
5,78333	-2111
5,79167	-2108
5,80000	-2115
5,80833	-2123
5,81667	-2131
5,82500	-2135
5,83333	-2131
5,84167	-2123
5,85000	-2115
5,85833	-2111
5,86667	-2113
5,87500	-2120
5,88333	-2134
5,89167	-2150
5,90000	-2157
5,90833	-2153
5,91667	-2154
5,92500	-2169
5,93333	-2178
5,94167	-2181
5,95000	-2195
5,95833	-2219
5,96667	-2252
5,97500	-2290
5,98333	-2319
5,99167	-2342
6,00000	-2363
6,00833	-2380
6,01667	-2399
6,02500	-2431
6,03333	-2471
6,04167	-2501
6,05000	-2521
6,05833	-2544
6,06667	-2567
6,07500	-2583
6,08333	-2600
6,09167	-2626
6,10000	-2649
6,10833	-2654
6,11667	-2648
6,12500	-2640
6,13333	-2642
6,14167	-2648
6,15000	-2641
6,15833	-2624
6,16667	-2614
6,17500	-2604
6,18333	-2583
6,19167	-2555
6,20000	-2525
6,20833	-2491
6,21667	-2454
6,22500	-2417
6,23333	-2383
6,24167	-2347
6,25000	-2307
6,25833	-2261
6,26667	-2218
6,27500	-2183
6,28333	-2147
6,29167	-2113
6,30000	-2091
6,30833	-2069
6,31667	-2045
6,32500	-2031
6,33333	-2019
6,34167	-2007
6,35000	-2007
6,35833	-2021
6,36667	-2045
6,37500	-2075
6,38333	-2114
6,39167	-2152
6,40000	-2189
6,40833	-2242
6,41667	-2306
6,42500	-2356
6,43333	-2385
6,44167	-2411
6,45000	-2450
6,45833	-2497
6,46667	-2548
6,47500	-2593
6,48333	-2629
6,49167	-2659
6,50000	-2674
6,50833	-2667
6,51667	-2657
6,52500	-2659
6,53333	-2668
6,54167	-2665
6,55000	-2648
6,55833	-2625
6,56667	-2609
6,57500	-2601
6,58333	-2592
6,59167	-2579
6,60000	-2555
6,60833	-2520
6,61667	-2480
6,62500	-2445
6,63333	-2423
6,64167	-2412
6,65000	-2404
6,65833	-2397
6,66667	-2384
6,67500	-2360
6,68333	-2340
6,69167	-2332
6,70000	-2329
6,70833	-2331
6,71667	-2338
6,72500	-2350
6,73333	-2358
6,74167	-2367
6,75000	-2389
6,75833	-2415
6,76667	-2442
6,77500	-2474
6,78333	-2510
6,79167	-2549
6,80000	-2590
6,80833	-2638
6,81667	-2691
6,82500	-2737
6,83333	-2765
6,84167	-2778
6,85000	-2787
6,85833	-2783
6,86667	-2776
6,87500	-2771
6,88333	-2752
6,89167	-2728
6,90000	-2709
6,90833	-2685
6,91667	-2648
6,92500	-2608
6,93333	-2581
6,94167	-2560
6,95000	-2544
6,95833	-2535
6,96667	-2530
6,97500	-2528
6,98333	-2524
6,99167	-2517
7,00000	-2523
7,00833	-2533
7,01667	-2535
7,02500	-2534
7,03333	-2519
7,04167	-2483
7,05000	-2424
7,05833	-2330
7,06667	-2196
7,07500	-2001
7,08333	-1720
7,09167	-1343
7,10000	-861
7,10833	-274
7,11667	437
7,12500	1284
7,13333	2262
7,14167	3370
7,15000	4599
7,15833	5924
7,16667	7316
7,17500	8756
7,18333	10234
7,19167	11732
7,20000	13214
7,20833	14674
7,21667	16105
7,22500	17485
7,23333	18823
7,24167	20143
7,25000	21474
7,25833	22861
7,26667	24355
7,27500	26004
7,28333	27854
7,29167	29918
7,30000	32174
7,30833	34570
7,31667	36997
7,32500	39297
7,33333	41304
7,34167	42847
7,35000	43780
7,35833	44002
7,36667	43445
7,37500	42089
7,38333	39995
7,39167	37286
7,40000	34118
7,40833	30650
7,41667	27036
7,42500	23443
7,43333	20010
7,44167	16815
7,45000	13903
7,45833	11306
7,46667	9031
7,47500	7070
7,48333	5394
7,49167	3962
7,50000	2754
7,50833	1754
7,51667	921
7,52500	222
7,53333	-352
7,54167	-816
7,55000	-1192
7,55833	-1502
7,56667	-1760
7,57500	-1970
7,58333	-2138
7,59167	-2262
7,60000	-2352
7,60833	-2430
7,61667	-2494
7,62500	-2550
7,63333	-2604
7,64167	-2648
7,65000	-2682
7,65833	-2712
7,66667	-2735
7,67500	-2742
7,68333	-2738
7,69167	-2733
7,70000	-2728
7,70833	-2727
7,71667	-2718
7,72500	-2692
7,73333	-2665
7,74167	-2648
7,75000	-2632
7,75833	-2622
7,76667	-2624
7,77500	-2618
7,78333	-2607
7,79167	-2612
7,80000	-2633
7,80833	-2651
7,81667	-2656
7,82500	-2651
7,83333	-2644
7,84167	-2646
7,85000	-2669
7,85833	-2711
7,86667	-2756
7,87500	-2792
7,88333	-2837
7,89167	-2894
7,90000	-2955
7,90833	-3011
7,91667	-3066
7,92500	-3125
7,93333	-3194
7,94167	-3274
7,95000	-3354
7,95833	-3426
7,96667	-3495
7,97500	-3568
7,98333	-3636
7,99167	-3703
8,00000	-3776
8,00833	-3857
8,01667	-3943
8,02500	-4024
8,03333	-4106
8,04167	-4202
8,05000	-4308
8,05833	-4404
8,06667	-4493
8,07500	-4589
8,08333	-4692
8,09167	-4782
8,10000	-4858
8,10833	-4936
8,11667	-5019
8,12500	-5092
8,13333	-5152
8,14167	-5213
8,15000	-5286
8,15833	-5363
8,16667	-5433
8,17500	-5492
8,18333	-5543
8,19167	-5586
8,20000	-5620
8,20833	-5647
8,21667	-5677
8,22500	-5705
8,23333	-5721
8,24167	-5730
8,25000	-5731
8,25833	-5725
8,26667	-5720
8,27500	-5712
8,28333	-5699
8,29167	-5685
8,30000	-5675
8,30833	-5667
8,31667	-5659
8,32500	-5647
8,33333	-5629
8,34167	-5613
8,35000	-5594
8,35833	-5580
8,36667	-5576
8,37500	-5571
8,38333	-5567
8,39167	-5558
8,40000	-5548
8,40833	-5543
8,41667	-5548
8,42500	-5555
8,43333	-5567
8,44167	-5588
8,45000	-5601
8,45833	-5602
8,46667	-5597
8,47500	-5591
8,48333	-5578
8,49167	-5553
8,50000	-5523
8,50833	-5498
8,51667	-5485
8,52500	-5474
8,53333	-5445
8,54167	-5400
8,55000	-5357
8,55833	-5323
8,56667	-5288
8,57500	-5250
8,58333	-5211
8,59167	-5169
8,60000	-5130
8,60833	-5101
8,61667	-5077
8,62500	-5050
8,63333	-5029
8,64167	-5022
8,65000	-5021
8,65833	-5013
8,66667	-5000
8,67500	-4986
8,68333	-4971
8,69167	-4967
8,70000	-4968
8,70833	-4967
8,71667	-4978
8,72500	-4998
8,73333	-5012
8,74167	-5010
8,75000	-5002
8,75833	-5001
8,76667	-5005
8,77500	-5005
8,78333	-5006
8,79167	-5019
8,80000	-5034
8,80833	-5042
8,81667	-5061
8,82500	-5092
8,83333	-5119
8,84167	-5138
8,85000	-5153
8,85833	-5167
8,86667	-5176
8,87500	-5183
8,88333	-5186
8,89167	-5179
8,90000	-5172
8,90833	-5175
8,91667	-5180
8,92500	-5179
8,93333	-5168
8,94167	-5145
8,95000	-5119
8,95833	-5098
8,96667	-5087
8,97500	-5086
8,98333	-5090
8,99167	-5094
9,00000	-5103
9,00833	-5111
9,01667	-5113
9,02500	-5120
9,03333	-5137
9,04167	-5163
9,05000	-5200
9,05833	-5255
9,06667	-5330
9,07500	-5402
9,08333	-5462
9,09167	-5517
9,10000	-5566
9,10833	-5613
9,11667	-5662
9,12500	-5707
9,13333	-5739
9,14167	-5748
9,15000	-5743
9,15833	-5730
9,16667	-5716
9,17500	-5705
9,18333	-5696
9,19167	-5676
9,20000	-5641
9,20833	-5596
9,21667	-5555
9,22500	-5519
9,23333	-5480
9,24167	-5440
9,25000	-5405
9,25833	-5387
9,26667	-5382
9,27500	-5380
9,28333	-5388
9,29167	-5414
9,30000	-5452
9,30833	-5487
9,31667	-5516
9,32500	-5553
9,33333	-5599
9,34167	-5646
9,35000	-5692
9,35833	-5740
9,36667	-5790
9,37500	-5839
9,38333	-5891
9,39167	-5931
9,40000	-5953
9,40833	-5962
9,41667	-5970
9,42500	-5985
9,43333	-6001
9,44167	-6008
9,45000	-6002
9,45833	-5994
9,46667	-5987
9,47500	-5971
9,48333	-5950
9,49167	-5934
9,50000	-5923
9,50833	-5920
9,51667	-5930
9,52500	-5955
9,53333	-5985
9,54167	-6013
9,55000	-6047
9,55833	-6085
9,56667	-6129
9,57500	-6174
9,58333	-6215
9,59167	-6261
9,60000	-6319
9,60833	-6389
9,61667	-6449
9,62500	-6490
9,63333	-6531
9,64167	-6571
9,65000	-6603
9,65833	-6639
9,66667	-6679
9,67500	-6708
9,68333	-6731
9,69167	-6757
9,70000	-6778
9,70833	-6785
9,71667	-6771
9,72500	-6737
9,73333	-6701
9,74167	-6676
9,75000	-6667
9,75833	-6669
9,76667	-6675
9,77500	-6678
9,78333	-6670
9,79167	-6656
9,80000	-6652
9,80833	-6647
9,81667	-6637
9,82500	-6642
9,83333	-6659
9,84167	-6672
9,85000	-6673
9,85833	-6674
9,86667	-6686
9,87500	-6701
9,88333	-6713
9,89167	-6720
9,90000	-6715
9,90833	-6704
9,91667	-6704
9,92500	-6725
9,93333	-6752
9,94167	-6767
9,95000	-6764
9,95833	-6754
9,96667	-6761
9,97500	-6784
9,98333	-6805
9,99167	-6829
10,00000	-6858
10,00833	-6879
10,01667	-6886
10,02500	-6900
10,03333	-6931
10,04167	-6964
10,05000	-6995
10,05833	-7031
10,06667	-7062
10,07500	-7083
10,08333	-7115
10,09167	-7154
10,10000	-7189
10,10833	-7229
10,11667	-7269
10,12500	-7296
10,13333	-7307
10,14167	-7313
10,15000	-7312
10,15833	-7306
10,16667	-7306
10,17500	-7308
10,18333	-7310
10,19167	-7318
10,20000	-7343
10,20833	-7382
10,21667	-7408
10,22500	-7418
10,23333	-7435
10,24167	-7461
10,25000	-7485
10,25833	-7501
10,26667	-7506
10,27500	-7517
10,28333	-7550
10,29167	-7587
10,30000	-7618
10,30833	-7645
10,31667	-7663
10,32500	-7676
10,33333	-7684
10,34167	-7685
10,35000	-7677
10,35833	-7668
10,36667	-7663
10,37500	-7661
10,38333	-7669
10,39167	-7688
10,40000	-7706
10,40833	-7713
10,41667	-7709
10,42500	-7703
10,43333	-7713
10,44167	-7736
10,45000	-7762
10,45833	-7787
10,46667	-7811
10,47500	-7832
10,48333	-7847
10,49167	-7859
10,50000	-7874
10,50833	-7883
10,51667	-7888
10,52500	-7900
10,53333	-7913
10,54167	-7925
10,55000	-7934
10,55833	-7936
10,56667	-7939
10,57500	-7944
10,58333	-7943
10,59167	-7931
10,60000	-7914
10,60833	-7904
10,61667	-7906
10,62500	-7911
10,63333	-7912
10,64167	-7911
10,65000	-7914
10,65833	-7916
10,66667	-7914
10,67500	-7911
10,68333	-7912
10,69167	-7915
10,70000	-7923
10,70833	-7940
10,71667	-7969
10,72500	-7997
10,73333	-8014
10,74167	-8031
10,75000	-8057
10,75833	-8087
10,76667	-8115
10,77500	-8147
10,78333	-8185
10,79167	-8231
10,80000	-8281
10,80833	-8320
10,81667	-8347
10,82500	-8374
10,83333	-8401
10,84167	-8433
10,85000	-8472
10,85833	-8502
10,86667	-8519
10,87500	-8519
10,88333	-8500
10,89167	-8471
10,90000	-8450
10,90833	-8434
10,91667	-8422
10,92500	-8410
10,93333	-8387
10,94167	-8357
10,95000	-8326
10,95833	-8291
10,96667	-8255
10,97500	-8233
10,98333	-8222
10,99167	-8210
11,00000	-8201
11,00833	-8187
11,01667	-8173
11,02500	-8182
11,03333	-8216
11,04167	-8248
11,05000	-8268
11,05833	-8292
11,06667	-8325
11,07500	-8359
11,08333	-8394
11,09167	-8433
11,10000	-8476
11,10833	-8522
11,11667	-8577
11,12500	-8640
11,13333	-8690
11,14167	-8733
11,15000	-8777
11,15833	-8814
11,16667	-8846
11,17500	-8876
11,18333	-8906
11,19167	-8933
11,20000	-8956
11,20833	-8974
11,21667	-8980
11,22500	-8980
11,23333	-8983
11,24167	-8978
11,25000	-8954
11,25833	-8912
11,26667	-8857
11,27500	-8805
11,28333	-8764
11,29167	-8740
11,30000	-8727
11,30833	-8717
11,31667	-8709
11,32500	-8691
11,33333	-8664
11,34167	-8642
11,35000	-8632
11,35833	-8643
11,36667	-8665
11,37500	-8679
11,38333	-8681
11,39167	-8685
11,40000	-8693
11,40833	-8704
11,41667	-8719
11,42500	-8731
11,43333	-8738
11,44167	-8747
11,45000	-8759
11,45833	-8773
11,46667	-8793
11,47500	-8811
11,48333	-8827
11,49167	-8841
11,50000	-8855
11,50833	-8880
11,51667	-8913
11,52500	-8941
11,53333	-8960
11,54167	-8971
11,55000	-8985
11,55833	-9014
11,56667	-9059
11,57500	-9114
11,58333	-9173
11,59167	-9223
11,60000	-9255
11,60833	-9274
11,61667	-9296
11,62500	-9324
11,63333	-9357
11,64167	-9396
11,65000	-9439
11,65833	-9475
11,66667	-9498
11,67500	-9507
11,68333	-9510
11,69167	-9520
11,70000	-9537
11,70833	-9551
11,71667	-9549
11,72500	-9531
11,73333	-9507
11,74167	-9477
11,75000	-9443
11,75833	-9411
11,76667	-9369
11,77500	-9313
11,78333	-9245
11,79167	-9162
11,80000	-9067
11,80833	-8965
11,81667	-8853
11,82500	-8728
11,83333	-8598
11,84167	-8466
11,85000	-8314
11,85833	-8131
11,86667	-7918
11,87500	-7678
11,88333	-7414
11,89167	-7122
11,90000	-6792
11,90833	-6416
11,91667	-5988
11,92500	-5521
11,93333	-5039
11,94167	-4564
11,95000	-4112
11,95833	-3714
11,96667	-3419
11,97500	-3302
11,98333	-3449
11,99167	-3931
12,00000	-4818
12,00833	-6212
12,01667	-8220
12,02500	-10936
12,03333	-14437
12,04167	-18786
12,05000	-24054
12,05833	-30270
12,06667	-37427
12,07500	-45513
12,08333	-54475
12,09167	-64201
12,10000	-74481
12,10833	-85020
12,11667	-95531
12,12500	-105791
12,13333	-115626
12,14167	-124930
12,15000	-133636
12,15833	-141661
12,16667	-148814
12,17500	-154412
12,18333	-156072
12,19167	-148960
12,20000	-128939
12,20833	-97732
12,21667	-63711
12,22500	-36743
12,23333	-21934
12,24167	-17789
12,25000	-19551
12,25833	-23367
12,26667	-27420
12,27500	-30545
12,28333	-30933
12,29167	-26101
12,30000	-13942
12,30833	5741
12,31667	30793
12,32500	57726
12,33333	82793
12,34167	103096
12,35000	117995
12,35833	128729
12,36667	136153
12,37500	140414
12,38333	143260
12,39167	147592
12,40000	152393
12,40833	150871
12,41667	136573
12,42500	109805
12,43333	76876
12,44167	44941
12,45000	18318
12,45833	-1955
12,46667	-16853
12,47500	-28038
12,48333	-37015
12,49167	-44772
12,50000	-51810
12,50833	-58311
12,51667	-64301
12,52500	-69718
12,53333	-74469
12,54167	-78547
12,55000	-82052
12,55833	-85113
12,56667	-87774
12,57500	-89978
12,58333	-91692
12,59167	-93006
12,60000	-94132
12,60833	-95309
12,61667	-96631
12,62500	-98016
12,63333	-99341
12,64167	-100585
12,65000	-101834
12,65833	-103147
12,66667	-104448
12,67500	-105544
12,68333	-106261
12,69167	-106555
12,70000	-106512
12,70833	-106261
12,71667	-105898
12,72500	-105488
12,73333	-105076
12,74167	-104693
12,75000	-104375
12,75833	-104137
12,76667	-103966
12,77500	-103834
12,78333	-103699
12,79167	-103523
12,80000	-103304
12,80833	-103099
12,81667	-103018
12,82500	-103165
12,83333	-103541
12,84167	-104016
12,85000	-104396
12,85833	-104490
12,86667	-104227
12,87500	-103679
12,88333	-102978
12,89167	-102255
12,90000	-101598
12,90833	-101035
12,91667	-100543
12,92500	-100105
12,93333	-99734
12,94167	-99454
12,95000	-99288
12,95833	-99238
12,96667	-99280
12,97500	-99357
12,98333	-99424
12,99167	-99464
13,00000	-99465
13,00833	-99430
13,01667	-99375
13,02500	-99305
13,03333	-99222
13,04167	-99120
13,05000	-99019
13,05833	-98948
13,06667	-98893
13,07500	-98836
13,08333	-98770
13,09167	-98681
13,10000	-98576
13,10833	-98470
13,11667	-98357
13,12500	-98224
13,13333	-98083
13,14167	-97964
13,15000	-97891
13,15833	-97924
13,16667	-98173
13,17500	-98660
13,18333	-99245
13,19167	-99687
13,20000	-99739
13,20833	-99340
13,21667	-98651
13,22500	-97908
13,23333	-97294
13,24167	-96878
13,25000	-96638
13,25833	-96516
13,26667	-96457
13,27500	-96428
13,28333	-96405
13,29167	-96388
13,30000	-96388
13,30833	-96392
13,31667	-96375
13,32500	-96319
13,33333	-96217
13,34167	-96083
13,35000	-95936
13,35833	-95810
13,36667	-95727
13,37500	-95686
13,38333	-95670
13,39167	-95662
13,40000	-95662
13,40833	-95676
13,41667	-95698
13,42500	-95720
13,43333	-95727
13,44167	-95718
13,45000	-95715
13,45833	-95727
13,46667	-95731
13,47500	-95717
13,48333	-95689
13,49167	-95663
13,50000	-95658
13,50833	-95653
13,51667	-95627
13,52500	-95592
13,53333	-95561
13,54167	-95522
13,55000	-95472
13,55833	-95420
13,56667	-95375
13,57500	-95335
13,58333	-95305
13,59167	-95295
13,60000	-95299
13,60833	-95322
13,61667	-95403
13,62500	-95619
13,63333	-96048
13,64167	-96697
13,65000	-97487
13,65833	-98291
13,66667	-98997
13,67500	-99555
13,68333	-99972
13,69167	-100284
13,70000	-100518
13,70833	-100680
13,71667	-100781
13,72500	-100855
13,73333	-100901
13,74167	-100907
13,75000	-100884
13,75833	-100853
13,76667	-100816
13,77500	-100768
13,78333	-100704
13,79167	-100601
13,80000	-100429
13,80833	-100165
13,81667	-99781
13,82500	-99255
13,83333	-98555
13,84167	-97670
13,85000	-96711
13,85833	-95957
13,86667	-95916
13,87500	-97358
13,88333	-101212
13,89167	-108306
13,90000	-119007
13,90833	-132893
13,91667	-148640
13,92500	-164325
13,93333	-178030
13,94167	-188338
13,95000	-194580
13,95833	-196815
13,96667	-195611
13,97500	-191791
13,98333	-186204
13,99167	-179605
14,00000	-172596
14,00833	-165608
14,01667	-158919
14,02500	-152685
14,03333	-146960
14,04167	-141724
14,05000	-136905
14,05833	-132410
14,06667	-128154
14,07500	-124062
14,08333	-120074
14,09167	-116172
14,10000	-112368
14,10833	-108687
14,11667	-105164
14,12500	-101823
14,13333	-98681
14,14167	-95750
14,15000	-93028
14,15833	-90499
14,16667	-88138
14,17500	-85919
14,18333	-83825
14,19167	-81838
14,20000	-79938
14,20833	-78096
14,21667	-76282
14,22500	-74483
14,23333	-72698
14,24167	-70926
14,25000	-69159
14,25833	-67389
14,26667	-65615
14,27500	-63828
14,28333	-62018
14,29167	-60193
14,30000	-58360
14,30833	-56515
14,31667	-54650
14,32500	-52768
14,33333	-50879
14,34167	-48993
14,35000	-47118
14,35833	-45252
14,36667	-43390
14,37500	-41538
14,38333	-39705
14,39167	-37893
14,40000	-36108
14,40833	-34358
14,41667	-32634
14,42500	-30930
14,43333	-29267
14,44167	-27658
14,45000	-26101
14,45833	-24588
14,46667	-23128
14,47500	-21730
14,48333	-20386
14,49167	-19095
14,50000	-17853
14,50833	-16656
14,51667	-15510
14,52500	-14409
14,53333	-13330
14,54167	-12279
14,55000	-11322
14,55833	-10534
14,56667	-9910
14,57500	-9406
14,58333	-8953
14,59167	-8476
14,60000	-7933
14,60833	-7325
14,61667	-6676
14,62500	-6019
14,63333	-5385
14,64167	-4790
14,65000	-4222
14,65833	-3688
14,66667	-3199
14,67500	-2748
14,68333	-2326
14,69167	-1930
14,70000	-1562
14,70833	-1224
14,71667	-912
14,72500	-625
14,73333	-369
14,74167	-147
14,75000	51
14,75833	243
14,76667	418
14,77500	570
14,78333	707
14,79167	828
14,80000	919
14,80833	978
14,81667	1019
14,82500	1051
14,83333	1073
14,84167	1089
14,85000	1097
14,85833	1098
14,86667	1104
14,87500	1114
14,88333	1118
14,89167	1114
14,90000	1101
14,90833	1063
14,91667	1002
14,92500	940
14,93333	886
14,94167	840
14,95000	803
14,95833	763
14,96667	709
14,97500	647
14,98333	581
14,99167	519
15,00000	465

[LC Chromatogram(Detector A-Ch2)]
Interval(msec)	500
# of Points	1801
Start Time(min)	0,000
End Time(min)	15,000
Intensity Units	mV
Intensity Multiplier	0,001
Wavelength(nm)	270nm
R.Time (min)	Intensity
0,00000	16
0,00833	16
0,01667	-4
0,02500	-3
0,03333	6
0,04167	16
0,05000	23
0,05833	28
0,06667	29
0,07500	27
0,08333	24
0,09167	18
0,10000	12
0,10833	8
0,11667	9
0,12500	11
0,13333	10
0,14167	12
0,15000	14
0,15833	12
0,16667	8
0,17500	5
0,18333	4
0,19167	3
0,20000	4
0,20833	11
0,21667	20
0,22500	28
0,23333	30
0,24167	31
0,25000	34
0,25833	35
0,26667	33
0,27500	32
0,28333	31
0,29167	30
0,30000	29
0,30833	27
0,31667	25
0,32500	26
0,33333	27
0,34167	30
0,35000	30
0,35833	25
0,36667	18
0,37500	14
0,38333	17
0,39167	18
0,40000	17
0,40833	16
0,41667	18
0,42500	23
0,43333	27
0,44167	28
0,45000	30
0,45833	32
0,46667	31
0,47500	27
0,48333	23
0,49167	19
0,50000	19
0,50833	21
0,51667	26
0,52500	31
0,53333	31
0,54167	28
0,55000	24
0,55833	20
0,56667	17
0,57500	15
0,58333	13
0,59167	11
0,60000	12
0,60833	14
0,61667	10
0,62500	7
0,63333	13
0,64167	20
0,65000	23
0,65833	23
0,66667	25
0,67500	29
0,68333	31
0,69167	32
0,70000	32
0,70833	32
0,71667	29
0,72500	26
0,73333	20
0,74167	12
0,75000	8
0,75833	9
0,76667	12
0,77500	18
0,78333	22
0,79167	21
0,80000	19
0,80833	19
0,81667	21
0,82500	26
0,83333	28
0,84167	26
0,85000	23
0,85833	21
0,86667	19
0,87500	19
0,88333	21
0,89167	23
0,90000	22
0,90833	20
0,91667	13
0,92500	3
0,93333	-2
0,94167	0
0,95000	7
0,95833	13
0,96667	18
0,97500	21
0,98333	24
0,99167	26
1,00000	28
1,00833	30
1,01667	32
1,02500	31
1,03333	33
1,04167	40
1,05000	45
1,05833	45
1,06667	42
1,07500	39
1,08333	39
1,09167	38
1,10000	36
1,10833	35
1,11667	41
1,12500	54
1,13333	75
1,14167	97
1,15000	120
1,15833	148
1,16667	182
1,17500	216
1,18333	248
1,19167	276
1,20000	294
1,20833	301
1,21667	296
1,22500	279
1,23333	252
1,24167	221
1,25000	189
1,25833	157
1,26667	128
1,27500	106
1,28333	92
1,29167	87
1,30000	85
1,30833	85
1,31667	85
1,32500	87
1,33333	96
1,34167	108
1,35000	121
1,35833	137
1,36667	155
1,37500	172
1,38333	193
1,39167	218
1,40000	243
1,40833	262
1,41667	263
1,42500	244
1,43333	220
1,44167	206
1,45000	214
1,45833	244
1,46667	297
1,47500	367
1,48333	436
1,49167	485
1,50000	504
1,50833	483
1,51667	429
1,52500	361
1,53333	293
1,54167	237
1,55000	192
1,55833	156
1,56667	128
1,57500	108
1,58333	95
1,59167	87
1,60000	84
1,60833	79
1,61667	69
1,62500	61
1,63333	59
1,64167	56
1,65000	51
1,65833	47
1,66667	45
1,67500	43
1,68333	39
1,69167	36
1,70000	34
1,70833	32
1,71667	29
1,72500	31
1,73333	42
1,74167	55
1,75000	63
1,75833	65
1,76667	66
1,77500	64
1,78333	62
1,79167	61
1,80000	62
1,80833	64
1,81667	63
1,82500	57
1,83333	50
1,84167	46
1,85000	48
1,85833	54
1,86667	59
1,87500	58
1,88333	54
1,89167	55
1,90000	57
1,90833	55
1,91667	52
1,92500	51
1,93333	51
1,94167	47
1,95000	41
1,95833	39
1,96667	43
1,97500	47
1,98333	48
1,99167	54
2,00000	62
2,00833	63
2,01667	58
2,02500	54
2,03333	51
2,04167	48
2,05000	47
2,05833	47
2,06667	48
2,07500	48
2,08333	47
2,09167	50
2,10000	57
2,10833	66
2,11667	71
2,12500	64
2,13333	56
2,14167	48
2,15000	43
2,15833	43
2,16667	48
2,17500	59
2,18333	68
2,19167	69
2,20000	66
2,20833	62
2,21667	64
2,22500	67
2,23333	65
2,24167	59
2,25000	54
2,25833	55
2,26667	54
2,27500	52
2,28333	53
2,29167	55
2,30000	53
2,30833	53
2,31667	54
2,32500	55
2,33333	55
2,34167	53
2,35000	53
2,35833	54
2,36667	55
2,37500	56
2,38333	58
2,39167	58
2,40000	56
2,40833	55
2,41667	53
2,42500	50
2,43333	51
2,44167	55
2,45000	60
2,45833	63
2,46667	62
2,47500	61
2,48333	61
2,49167	57
2,50000	50
2,50833	47
2,51667	48
2,52500	50
2,53333	56
2,54167	65
2,55000	74
2,55833	78
2,56667	82
2,57500	88
2,58333	94
2,59167	100
2,60000	108
2,60833	110
2,61667	109
2,62500	112
2,63333	117
2,64167	116
2,65000	110
2,65833	103
2,66667	99
2,67500	93
2,68333	87
2,69167	85
2,70000	81
2,70833	72
2,71667	62
2,72500	57
2,73333	57
2,74167	53
2,75000	48
2,75833	47
2,76667	48
2,77500	47
2,78333	47
2,79167	51
2,80000	54
2,80833	56
2,81667	59
2,82500	63
2,83333	65
2,84167	62
2,85000	59
2,85833	58
2,86667	58
2,87500	60
2,88333	64
2,89167	65
2,90000	62
2,90833	58
2,91667	54
2,92500	51
2,93333	50
2,94167	51
2,95000	55
2,95833	60
2,96667	61
2,97500	61
2,98333	61
2,99167	56
3,00000	48
3,00833	47
3,01667	54
3,02500	62
3,03333	69
3,04167	72
3,05000	72
3,05833	73
3,06667	76
3,07500	80
3,08333	79
3,09167	71
3,10000	63
3,10833	60
3,11667	58
3,12500	57
3,13333	57
3,14167	61
3,15000	64
3,15833	65
3,16667	69
3,17500	75
3,18333	74
3,19167	72
3,20000	71
3,20833	70
3,21667	67
3,22500	66
3,23333	70
3,24167	74
3,25000	75
3,25833	70
3,26667	66
3,27500	66
3,28333	65
3,29167	63
3,30000	63
3,30833	63
3,31667	60
3,32500	55
3,33333	53
3,34167	57
3,35000	66
3,35833	72
3,36667	74
3,37500	71
3,38333	62
3,39167	57
3,40000	56
3,40833	53
3,41667	52
3,42500	55
3,43333	59
3,44167	62
3,45000	66
3,45833	70
3,46667	71
3,47500	70
3,48333	64
3,49167	56
3,50000	52
3,50833	48
3,51667	46
3,52500	51
3,53333	60
3,54167	69
3,55000	75
3,55833	75
3,56667	69
3,57500	62
3,58333	56
3,59167	53
3,60000	48
3,60833	43
3,61667	43
3,62500	41
3,63333	41
3,64167	46
3,65000	51
3,65833	50
3,66667	49
3,67500	50
3,68333	48
3,69167	46
3,70000	54
3,70833	64
3,71667	65
3,72500	62
3,73333	58
3,74167	56
3,75000	58
3,75833	62
3,76667	64
3,77500	63
3,78333	64
3,79167	65
3,80000	63
3,80833	65
3,81667	70
3,82500	73
3,83333	72
3,84167	71
3,85000	72
3,85833	74
3,86667	75
3,87500	74
3,88333	70
3,89167	66
3,90000	64
3,90833	66
3,91667	69
3,92500	68
3,93333	68
3,94167	66
3,95000	61
3,95833	59
3,96667	62
3,97500	64
3,98333	61
3,99167	60
4,00000	63
4,00833	69
4,01667	69
4,02500	61
4,03333	53
4,04167	47
4,05000	42
4,05833	41
4,06667	47
4,07500	54
4,08333	58
4,09167	58
4,10000	55
4,10833	57
4,11667	60
4,12500	62
4,13333	61
4,14167	57
4,15000	49
4,15833	42
4,16667	38
4,17500	34
4,18333	32
4,19167	35
4,20000	37
4,20833	35
4,21667	33
4,22500	36
4,23333	40
4,24167	39
4,25000	33
4,25833	30
4,26667	31
4,27500	37
4,28333	42
4,29167	46
4,30000	47
4,30833	42
4,31667	32
4,32500	24
4,33333	21
4,34167	22
4,35000	25
4,35833	26
4,36667	30
4,37500	34
4,38333	35
4,39167	35
4,40000	39
4,40833	46
4,41667	51
4,42500	50
4,43333	46
4,44167	44
4,45000	46
4,45833	50
4,46667	49
4,47500	46
4,48333	46
4,49167	47
4,50000	47
4,50833	46
4,51667	46
4,52500	49
4,53333	52
4,54167	55
4,55000	58
4,55833	62
4,56667	60
4,57500	52
4,58333	47
4,59167	49
4,60000	53
4,60833	53
4,61667	47
4,62500	39
4,63333	34
4,64167	30
4,65000	29
4,65833	28
4,66667	26
4,67500	24
4,68333	22
4,69167	18
4,70000	12
4,70833	9
4,71667	7
4,72500	5
4,73333	7
4,74167	11
4,75000	10
4,75833	3
4,76667	-4
4,77500	-6
4,78333	-5
4,79167	-4
4,80000	-0
4,80833	1
4,81667	-6
4,82500	-16
4,83333	-20
4,84167	-16
4,85000	-9
4,85833	-3
4,86667	1
4,87500	1
4,88333	-0
4,89167	1
4,90000	5
4,90833	11
4,91667	13
4,92500	8
4,93333	2
4,94167	1
4,95000	1
4,95833	-0
4,96667	-4
4,97500	-4
4,98333	-3
4,99167	-5
5,00000	-10
5,00833	-17
5,01667	-24
5,02500	-26
5,03333	-23
5,04167	-20
5,05000	-19
5,05833	-20
5,06667	-24
5,07500	-25
5,08333	-23
5,09167	-21
5,10000	-24
5,10833	-28
5,11667	-28
5,12500	-27
5,13333	-28
5,14167	-25
5,15000	-18
5,15833	-14
5,16667	-16
5,17500	-21
5,18333	-22
5,19167	-20
5,20000	-20
5,20833	-25
5,21667	-30
5,22500	-31
5,23333	-30
5,24167	-30
5,25000	-29
5,25833	-25
5,26667	-26
5,27500	-31
5,28333	-36
5,29167	-35
5,30000	-34
5,30833	-34
5,31667	-35
5,32500	-37
5,33333	-39
5,34167	-41
5,35000	-44
5,35833	-51
5,36667	-54
5,37500	-52
5,38333	-47
5,39167	-38
5,40000	-30
5,40833	-30
5,41667	-33
5,42500	-36
5,43333	-35
5,44167	-36
5,45000	-34
5,45833	-30
5,46667	-29
5,47500	-32
5,48333	-36
5,49167	-35
5,50000	-35
5,50833	-37
5,51667	-41
5,52500	-43
5,53333	-42
5,54167	-41
5,55000	-42
5,55833	-45
5,56667	-43
5,57500	-38
5,58333	-31
5,59167	-26
5,60000	-26
5,60833	-28
5,61667	-28
5,62500	-23
5,63333	-17
5,64167	-15
5,65000	-15
5,65833	-19
5,66667	-24
5,67500	-27
5,68333	-30
5,69167	-35
5,70000	-43
5,70833	-49
5,71667	-53
5,72500	-56
5,73333	-58
5,74167	-59
5,75000	-59
5,75833	-58
5,76667	-56
5,77500	-57
5,78333	-59
5,79167	-63
5,80000	-64
5,80833	-67
5,81667	-72
5,82500	-77
5,83333	-83
5,84167	-88
5,85000	-89
5,85833	-81
5,86667	-70
5,87500	-70
5,88333	-79
5,89167	-90
5,90000	-100
5,90833	-107
5,91667	-111
5,92500	-113
5,93333	-111
5,94167	-108
5,95000	-105
5,95833	-106
5,96667	-109
5,97500	-108
5,98333	-103
5,99167	-98
6,00000	-93
6,00833	-89
6,01667	-88
6,02500	-88
6,03333	-90
6,04167	-98
6,05000	-106
6,05833	-113
6,06667	-116
6,07500	-117
6,08333	-117
6,09167	-118
6,10000	-118
6,10833	-116
6,11667	-114
6,12500	-111
6,13333	-110
6,14167	-110
6,15000	-110
6,15833	-110
6,16667	-113
6,17500	-119
6,18333	-124
6,19167	-128
6,20000	-132
6,20833	-135
6,21667	-134
6,22500	-129
6,23333	-126
6,24167	-126
6,25000	-124
6,25833	-123
6,26667	-125
6,27500	-128
6,28333	-127
6,29167	-122
6,30000	-119
6,30833	-122
6,31667	-134
6,32500	-146
6,33333	-149
6,34167	-147
6,35000	-147
6,35833	-146
6,36667	-146
6,37500	-148
6,38333	-151
6,39167	-152
6,40000	-153
6,40833	-153
6,41667	-153
6,42500	-155
6,43333	-155
6,44167	-153
6,45000	-151
6,45833	-149
6,46667	-145
6,47500	-140
6,48333	-137
6,49167	-137
6,50000	-143
6,50833	-155
6,51667	-159
6,52500	-158
6,53333	-156
6,54167	-155
6,55000	-157
6,55833	-156
6,56667	-153
6,57500	-148
6,58333	-147
6,59167	-151
6,60000	-154
6,60833	-157
6,61667	-164
6,62500	-171
6,63333	-174
6,64167	-172
6,65000	-168
6,65833	-166
6,66667	-167
6,67500	-170
6,68333	-172
6,69167	-173
6,70000	-173
6,70833	-172
6,71667	-171
6,72500	-170
6,73333	-172
6,74167	-175
6,75000	-178
6,75833	-181
6,76667	-183
6,77500	-185
6,78333	-187
6,79167	-186
6,80000	-187
6,80833	-190
6,81667	-194
6,82500	-199
6,83333	-200
6,84167	-200
6,85000	-200
6,85833	-196
6,86667	-193
6,87500	-194
6,88333	-194
6,89167	-191
6,90000	-188
6,90833	-189
6,91667	-190
6,92500	-189
6,93333	-190
6,94167	-190
6,95000	-195
6,95833	-198
6,96667	-197
6,97500	-197
6,98333	-198
6,99167	-198
7,00000	-192
7,00833	-175
7,01667	-147
7,02500	-104
7,03333	-41
7,04167	56
7,05000	203
7,05833	418
7,06667	725
7,07500	1152
7,08333	1731
7,09167	2492
7,10000	3459
7,10833	4650
7,11667	6079
7,12500	7750
7,13333	9654
7,14167	11784
7,15000	14119
7,15833	16629
7,16667	19277
7,17500	22025
7,18333	24834
7,19167	27662
7,20000	30467
7,20833	33216
7,21667	35893
7,22500	38495
7,23333	41038
7,24167	43556
7,25000	46110
7,25833	48784
7,26667	51666
7,27500	54848
7,28333	58401
7,29167	62348
7,30000	66649
7,30833	71183
7,31667	75749
7,32500	80069
7,33333	83826
7,34167	86696
7,35000	88387
7,35833	88684
7,36667	87480
7,37500	84781
7,38333	80716
7,39167	75511
7,40000	69456
7,40833	62865
7,41667	56053
7,42500	49300
7,43333	42829
7,44167	36803
7,45000	31328
7,45833	26450
7,46667	22171
7,47500	18467
7,48333	15303
7,49167	12629
7,50000	10379
7,50833	8493
7,51667	6922
7,52500	5626
7,53333	4561
7,54167	3687
7,55000	2967
7,55833	2376
7,56667	1896
7,57500	1505
7,58333	1186
7,59167	929
7,60000	724
7,60833	559
7,61667	420
7,62500	303
7,63333	213
7,64167	141
7,65000	79
7,65833	27
7,66667	-15
7,67500	-48
7,68333	-79
7,69167	-103
7,70000	-122
7,70833	-143
7,71667	-161
7,72500	-172
7,73333	-180
7,74167	-189
7,75000	-200
7,75833	-209
7,76667	-217
7,77500	-225
7,78333	-234
7,79167	-243
7,80000	-247
7,80833	-248
7,81667	-250
7,82500	-252
7,83333	-254
7,84167	-259
7,85000	-264
7,85833	-265
7,86667	-266
7,87500	-273
7,88333	-283
7,89167	-286
7,90000	-286
7,90833	-288
7,91667	-293
7,92500	-297
7,93333	-301
7,94167	-305
7,95000	-307
7,95833	-309
7,96667	-314
7,97500	-322
7,98333	-326
7,99167	-326
8,00000	-325
8,00833	-327
8,01667	-333
8,02500	-341
8,03333	-346
8,04167	-348
8,05000	-345
8,05833	-342
8,06667	-344
8,07500	-349
8,08333	-353
8,09167	-357
8,10000	-357
8,10833	-356
8,11667	-356
8,12500	-354
8,13333	-351
8,14167	-352
8,15000	-359
8,15833	-368
8,16667	-373
8,17500	-373
8,18333	-374
8,19167	-377
8,20000	-384
8,20833	-392
8,21667	-396
8,22500	-398
8,23333	-398
8,24167	-397
8,25000	-397
8,25833	-401
8,26667	-406
8,27500	-412
8,28333	-414
8,29167	-412
8,30000	-408
8,30833	-406
8,31667	-409
8,32500	-418
8,33333	-429
8,34167	-440
8,35000	-445
8,35833	-446
8,36667	-444
8,37500	-443
8,38333	-447
8,39167	-453
8,40000	-457
8,40833	-460
8,41667	-459
8,42500	-457
8,43333	-455
8,44167	-456
8,45000	-460
8,45833	-465
8,46667	-471
8,47500	-477
8,48333	-478
8,49167	-474
8,50000	-470
8,50833	-473
8,51667	-476
8,52500	-476
8,53333	-474
8,54167	-472
8,55000	-477
8,55833	-487
8,56667	-494
8,57500	-497
8,58333	-496
8,59167	-498
8,60000	-501
8,60833	-502
8,61667	-503
8,62500	-504
8,63333	-506
8,64167	-510
8,65000	-513
8,65833	-511
8,66667	-506
8,67500	-504
8,68333	-506
8,69167	-512
8,70000	-520
8,70833	-526
8,71667	-527
8,72500	-525
8,73333	-525
8,74167	-529
8,75000	-535
8,75833	-541
8,76667	-545
8,77500	-547
8,78333	-545
8,79167	-544
8,80000	-543
8,80833	-542
8,81667	-544
8,82500	-551
8,83333	-558
8,84167	-563
8,85000	-565
8,85833	-567
8,86667	-572
8,87500	-576
8,88333	-576
8,89167	-574
8,90000	-570
8,90833	-567
8,91667	-564
8,92500	-562
8,93333	-562
8,94167	-569
8,95000	-580
8,95833	-590
8,96667	-594
8,97500	-595
8,98333	-597
8,99167	-601
9,00000	-603
9,00833	-603
9,01667	-603
9,02500	-608
9,03333	-611
9,04167	-609
9,05000	-608
9,05833	-612
9,06667	-618
9,07500	-620
9,08333	-623
9,09167	-629
9,10000	-635
9,10833	-639
9,11667	-640
9,12500	-639
9,13333	-642
9,14167	-647
9,15000	-650
9,15833	-650
9,16667	-648
9,17500	-648
9,18333	-651
9,19167	-656
9,20000	-661
9,20833	-664
9,21667	-667
9,22500	-670
9,23333	-670
9,24167	-668
9,25000	-669
9,25833	-668
9,26667	-663
9,27500	-661
9,28333	-667
9,29167	-671
9,30000	-671
9,30833	-674
9,31667	-680
9,32500	-682
9,33333	-680
9,34167	-679
9,35000	-679
9,35833	-675
9,36667	-673
9,37500	-673
9,38333	-674
9,39167	-674
9,40000	-677
9,40833	-680
9,41667	-684
9,42500	-689
9,43333	-691
9,44167	-691
9,45000	-691
9,45833	-690
9,46667	-690
9,47500	-690
9,48333	-691
9,49167	-692
9,50000	-691
9,50833	-690
9,51667	-689
9,52500	-687
9,53333	-688
9,54167	-692
9,55000	-699
9,55833	-712
9,56667	-721
9,57500	-721
9,58333	-718
9,59167	-722
9,60000	-728
9,60833	-729
9,61667	-727
9,62500	-730
9,63333	-736
9,64167	-746
9,65000	-753
9,65833	-757
9,66667	-760
9,67500	-761
9,68333	-764
9,69167	-771
9,70000	-778
9,70833	-783
9,71667	-786
9,72500	-788
9,73333	-791
9,74167	-797
9,75000	-801
9,75833	-802
9,76667	-803
9,77500	-804
9,78333	-805
9,79167	-810
9,80000	-815
9,80833	-820
9,81667	-825
9,82500	-829
9,83333	-829
9,84167	-830
9,85000	-833
9,85833	-833
9,86667	-834
9,87500	-836
9,88333	-839
9,89167	-840
9,90000	-840
9,90833	-842
9,91667	-846
9,92500	-851
9,93333	-855
9,94167	-857
9,95000	-860
9,95833	-861
9,96667	-858
9,97500	-857
9,98333	-861
9,99167	-864
10,00000	-869
10,00833	-874
10,01667	-877
10,02500	-878
10,03333	-881
10,04167	-885
10,05000	-889
10,05833	-894
10,06667	-901
10,07500	-907
10,08333	-909
10,09167	-910
10,10000	-911
10,10833	-914
10,11667	-915
10,12500	-914
10,13333	-912
10,14167	-913
10,15000	-917
10,15833	-920
10,16667	-922
10,17500	-923
10,18333	-931
10,19167	-945
10,20000	-957
10,20833	-966
10,21667	-976
10,22500	-981
10,23333	-980
10,24167	-976
10,25000	-974
10,25833	-977
10,26667	-986
10,27500	-995
10,28333	-998
10,29167	-994
10,30000	-987
10,30833	-982
10,31667	-980
10,32500	-982
10,33333	-988
10,34167	-997
10,35000	-1004
10,35833	-1013
10,36667	-1018
10,37500	-1013
10,38333	-1006
10,39167	-1005
10,40000	-1010
10,40833	-1016
10,41667	-1020
10,42500	-1023
10,43333	-1028
10,44167	-1033
10,45000	-1037
10,45833	-1039
10,46667	-1037
10,47500	-1031
10,48333	-1028
10,49167	-1034
10,50000	-1044
10,50833	-1056
10,51667	-1066
10,52500	-1073
10,53333	-1077
10,54167	-1080
10,55000	-1083
10,55833	-1086
10,56667	-1087
10,57500	-1087
10,58333	-1085
10,59167	-1085
10,60000	-1089
10,60833	-1093
10,61667	-1097
10,62500	-1099
10,63333	-1101
10,64167	-1105
10,65000	-1109
10,65833	-1110
10,66667	-1109
10,67500	-1106
10,68333	-1104
10,69167	-1106
10,70000	-1113
10,70833	-1119
10,71667	-1122
10,72500	-1120
10,73333	-1118
10,74167	-1125
10,75000	-1135
10,75833	-1141
10,76667	-1140
10,77500	-1135
10,78333	-1131
10,79167	-1133
10,80000	-1138
10,80833	-1143
10,81667	-1147
10,82500	-1153
10,83333	-1163
10,84167	-1175
10,85000	-1185
10,85833	-1188
10,86667	-1187
10,87500	-1187
10,88333	-1190
10,89167	-1192
10,90000	-1191
10,90833	-1193
10,91667	-1197
10,92500	-1199
10,93333	-1199
10,94167	-1201
10,95000	-1205
10,95833	-1205
10,96667	-1202
10,97500	-1201
10,98333	-1204
10,99167	-1210
11,00000	-1218
11,00833	-1224
11,01667	-1227
11,02500	-1231
11,03333	-1237
11,04167	-1246
11,05000	-1254
11,05833	-1255
11,06667	-1251
11,07500	-1252
11,08333	-1257
11,09167	-1264
11,10000	-1270
11,10833	-1278
11,11667	-1286
11,12500	-1290
11,13333	-1293
11,14167	-1297
11,15000	-1299
11,15833	-1297
11,16667	-1297
11,17500	-1301
11,18333	-1305
11,19167	-1306
11,20000	-1306
11,20833	-1306
11,21667	-1305
11,22500	-1304
11,23333	-1305
11,24167	-1308
11,25000	-1310
11,25833	-1310
11,26667	-1313
11,27500	-1319
11,28333	-1323
11,29167	-1327
11,30000	-1332
11,30833	-1337
11,31667	-1343
11,32500	-1352
11,33333	-1356
11,34167	-1356
11,35000	-1355
11,35833	-1354
11,36667	-1350
11,37500	-1347
11,38333	-1348
11,39167	-1352
11,40000	-1357
11,40833	-1364
11,41667	-1372
11,42500	-1378
11,43333	-1378
11,44167	-1379
11,45000	-1386
11,45833	-1396
11,46667	-1404
11,47500	-1410
11,48333	-1416
11,49167	-1422
11,50000	-1430
11,50833	-1437
11,51667	-1443
11,52500	-1448
11,53333	-1452
11,54167	-1455
11,55000	-1458
11,55833	-1465
11,56667	-1473
11,57500	-1477
11,58333	-1473
11,59167	-1471
11,60000	-1473
11,60833	-1474
11,61667	-1477
11,62500	-1481
11,63333	-1487
11,64167	-1494
11,65000	-1503
11,65833	-1514
11,66667	-1523
11,67500	-1524
11,68333	-1522
11,69167	-1516
11,70000	-1516
11,70833	-1522
11,71667	-1526
11,72500	-1526
11,73333	-1530
11,74167	-1541
11,75000	-1552
11,75833	-1553
11,76667	-1551
11,77500	-1552
11,78333	-1558
11,79167	-1570
11,80000	-1585
11,80833	-1598
11,81667	-1616
11,82500	-1640
11,83333	-1664
11,84167	-1690
11,85000	-1726
11,85833	-1776
11,86667	-1838
11,87500	-1916
11,88333	-2013
11,89167	-2134
11,90000	-2279
11,90833	-2455
11,91667	-2674
11,92500	-2947
11,93333	-3286
11,94167	-3701
11,95000	-4209
11,95833	-4825
11,96667	-5568
11,97500	-6470
11,98333	-7567
11,99167	-8897
12,00000	-10498
12,00833	-12410
12,01667	-14679
12,02500	-17353
12,03333	-20465
12,04167	-24049
12,05000	-28129
12,05833	-32715
12,06667	-37796
12,07500	-43337
12,08333	-49278
12,09167	-55546
12,10000	-62052
12,10833	-68685
12,11667	-75342
12,12500	-81939
12,13333	-88404
12,14167	-94670
12,15000	-100670
12,15833	-106339
12,16667	-111576
12,17500	-116213
12,18333	-119917
12,19167	-122187
12,20000	-122696
12,20833	-121715
12,21667	-120083
12,22500	-118684
12,23333	-117918
12,24167	-117627
12,25000	-117435
12,25833	-117087
12,26667	-116502
12,27500	-115638
12,28333	-114380
12,29167	-112536
12,30000	-109924
12,30833	-106513
12,31667	-102485
12,32500	-98175
12,33333	-93950
12,34167	-90061
12,35000	-86509
12,35833	-83155
12,36667	-79969
12,37500	-76999
12,38333	-74120
12,39167	-71148
12,40000	-68281
12,40833	-66157
12,41667	-65271
12,42500	-65489
12,43333	-66199
12,44167	-66763
12,45000	-66791
12,45833	-66182
12,46667	-65034
12,47500	-63548
12,48333	-61934
12,49167	-60346
12,50000	-58861
12,50833	-57495
12,51667	-56222
12,52500	-55002
12,53333	-53798
12,54167	-52583
12,55000	-51338
12,55833	-50054
12,56667	-48739
12,57500	-47400
12,58333	-46040
12,59167	-44664
12,60000	-43278
12,60833	-41894
12,61667	-40537
12,62500	-39252
12,63333	-38085
12,64167	-37071
12,65000	-36234
12,65833	-35561
12,66667	-34998
12,67500	-34458
12,68333	-33876
12,69167	-33238
12,70000	-32573
12,70833	-31925
12,71667	-31328
12,72500	-30774
12,73333	-30244
12,74167	-29726
12,75000	-29218
12,75833	-28726
12,76667	-28257
12,77500	-27819
12,78333	-27411
12,79167	-27032
12,80000	-26689
12,80833	-26398
12,81667	-26178
12,82500	-26045
12,83333	-25989
12,84167	-25975
12,85000	-25950
12,85833	-25864
12,86667	-25680
12,87500	-25394
12,88333	-25037
12,89167	-24653
12,90000	-24279
12,90833	-23936
12,91667	-23630
12,92500	-23357
12,93333	-23109
12,94167	-22890
12,95000	-22702
12,95833	-22537
12,96667	-22385
12,97500	-22245
12,98333	-22113
12,99167	-21978
13,00000	-21836
13,00833	-21693
13,01667	-21555
13,02500	-21424
13,03333	-21300
13,04167	-21182
13,05000	-21070
13,05833	-20957
13,06667	-20838
13,07500	-20712
13,08333	-20587
13,09167	-20462
13,10000	-20331
13,10833	-20199
13,11667	-20064
13,12500	-19930
13,13333	-19803
13,14167	-19698
13,15000	-19636
13,15833	-19631
13,16667	-19697
13,17500	-19833
13,18333	-19993
13,19167	-20080
13,20000	-20012
13,20833	-19782
13,21667	-19462
13,22500	-19144
13,23333	-18889
13,24167	-18712
13,25000	-18600
13,25833	-18526
13,26667	-18469
13,27500	-18424
13,28333	-18385
13,29167	-18345
13,30000	-18303
13,30833	-18264
13,31667	-18221
13,32500	-18164
13,33333	-18092
13,34167	-18008
13,35000	-17919
13,35833	-17831
13,36667	-17751
13,37500	-17693
13,38333	-17658
13,39167	-17639
13,40000	-17626
13,40833	-17618
13,41667	-17609
13,42500	-17602
13,43333	-17595
13,44167	-17587
13,45000	-17575
13,45833	-17559
13,46667	-17535
13,47500	-17503
13,48333	-17472
13,49167	-17444
13,50000	-17416
13,50833	-17386
13,51667	-17352
13,52500	-17318
13,53333	-17284
13,54167	-17249
13,55000	-17212
13,55833	-17174
13,56667	-17132
13,57500	-17088
13,58333	-17046
13,59167	-17011
13,60000	-16987
13,60833	-16991
13,61667	-17052
13,62500	-17218
13,63333	-17531
13,64167	-17978
13,65000	-18496
13,65833	-19013
13,66667	-19472
13,67500	-19847
13,68333	-20135
13,69167	-20345
13,70000	-20491
13,70833	-20591
13,71667	-20659
13,72500	-20705
13,73333	-20733
13,74167	-20744
13,75000	-20745
13,75833	-20741
13,76667	-20734
13,77500	-20726
13,78333	-20718
13,79167	-20713
13,80000	-20717
13,80833	-20736
13,81667	-20776
13,82500	-20857
13,83333	-21013
13,84167	-21301
13,85000	-21812
13,85833	-22687
13,86667	-24143
13,87500	-26489
13,88333	-30072
13,89167	-35168
13,90000	-41814
13,90833	-49592
13,91667	-57564
13,92500	-64542
13,93333	-69531
13,94167	-72008
13,95000	-71964
13,95833	-69773
13,96667	-65991
13,97500	-61176
13,98333	-55817
13,99167	-50303
14,00000	-44910
14,00833	-39820
14,01667	-35140
14,02500	-30915
14,03333	-27145
14,04167	-23813
14,05000	-20887
14,05833	-18331
14,06667	-16106
14,07500	-14178
14,08333	-12502
14,09167	-11040
14,10000	-9760
14,10833	-8637
14,11667	-7650
14,12500	-6779
14,13333	-6007
14,14167	-5323
14,15000	-4724
14,15833	-4195
14,16667	-3722
14,17500	-3298
14,18333	-2923
14,19167	-2593
14,20000	-2306
14,20833	-2059
14,21667	-1843
14,22500	-1651
14,23333	-1478
14,24167	-1327
14,25000	-1197
14,25833	-1083
14,26667	-980
14,27500	-888
14,28333	-803
14,29167	-729
14,30000	-664
14,30833	-607
14,31667	-558
14,32500	-511
14,33333	-468
14,34167	-430
14,35000	-394
14,35833	-361
14,36667	-328
14,37500	-296
14,38333	-271
14,39167	-248
14,40000	-224
14,40833	-203
14,41667	-189
14,42500	-176
14,43333	-163
14,44167	-152
14,45000	-143
14,45833	-139
14,46667	-131
14,47500	-117
14,48333	-105
14,49167	-96
14,50000	-86
14,50833	-73
14,51667	-58
14,52500	-48
14,53333	-46
14,54167	-47
14,55000	-43
14,55833	-39
14,56667	-37
14,57500	-35
14,58333	-31
14,59167	-27
14,60000	-21
14,60833	-14
14,61667	-9
14,62500	-7
14,63333	-7
14,64167	-6
14,65000	-2
14,65833	3
14,66667	7
14,67500	9
14,68333	10
14,69167	10
14,70000	15
14,70833	22
14,71667	24
14,72500	24
14,73333	22
14,74167	24
14,75000	28
14,75833	29
14,76667	26
14,77500	26
14,78333	30
14,79167	35
14,80000	37
14,80833	36
14,81667	37
14,82500	42
14,83333	48
14,84167	53
14,85000	56
14,85833	60
14,86667	60
14,87500	58
14,88333	54
14,89167	51
14,90000	49
14,90833	48
14,91667	47
14,92500	45
14,93333	45
14,94167	50
14,95000	54
14,95833	55
14,96667	56
14,97500	57
14,98333	55
14,99167	53
15,00000	53

